Wavelength (microns),H2O Transmittance,H2O Absorption,CO2 Transmittance,CO2 Absorption,CH4 Transmittance,CH4 Absorption,O3 Transmittance,O3 Absorption,N2O Transmittance,N2O Absorption,N2 Transmittance,N2 Absorption,O2 Transmittance,O2 Absorption
11.999999999998,0.998926807898,0.001073192102,0.999982247107,0.000017752893,0.999999999998,0.000000000002,0.998455479065,0.001544520935,0.999999890324,0.000000109676,1.000000000000,0.000000000000,1.000000000000,0.000000000000
12.000532579267,0.998926698999,0.001073301001,0.999982176562,0.000017823438,0.999999999998,0.000000000002,0.998448829399,0.001551170601,0.999999890371,0.000000109629,1.000000000000,0.000000000000,1.000000000000,0.000000000000
12.001065205811,0.998926572428,0.001073427572,0.999982106503,0.000017893497,0.999999999998,0.000000000002,0.998442233990,0.001557766010,0.999999890417,0.000000109583,1.000000000000,0.000000000000,1.000000000000,0.000000000000
12.001597879637,0.998926427703,0.001073572297,0.999982036831,0.000017963169,0.999999999998,0.000000000002,0.998435679034,0.001564320966,0.999999890462,0.000000109538,1.000000000000,0.000000000000,1.000000000000,0.000000000000
12.002130600752,0.998926268880,0.001073731120,0.999981967793,0.000018032207,0.999999999998,0.000000000002,0.998429126521,0.001570873479,0.999999890506,0.000000109494,1.000000000000,0.000000000000,1.000000000000,0.000000000000
12.002663369160,0.998926100172,0.001073899828,0.999981899749,0.000018100251,0.999999999998,0.000000000002,0.998422550122,0.001577449878,0.999999890548,0.000000109452,1.000000000000,0.000000000000,1.000000000000,0.000000000000
12.003196184870,0.998925924574,0.001074075426,0.999981832931,0.000018167069,0.999999999998,0.000000000002,0.998415942921,0.001584057079,0.999999890590,0.000000109410,1.000000000000,0.000000000000,1.000000000000,0.000000000000
12.003729047886,0.998925744022,0.001074255978,0.999981767253,0.000018232747,0.999999999998,0.000000000002,0.998409265452,0.001590734548,0.999999890630,0.000000109370,1.000000000000,0.000000000000,1.000000000000,0.000000000000
12.004261958216,0.998925559749,0.001074440251,0.999981702205,0.000018297795,0.999999999998,0.000000000002,0.998402480436,0.001597519564,0.999999890668,0.000000109332,1.000000000000,0.000000000000,1.000000000000,0.000000000000
12.004794915865,0.998925372556,0.001074627444,0.999981637623,0.000018362377,0.999999999998,0.000000000002,0.998395547244,0.001604452756,0.999999890705,0.000000109295,1.000000000000,0.000000000000,1.000000000000,0.000000000000
12.005327920841,0.998925182996,0.001074817004,0.999981573820,0.000018426180,0.999999999998,0.000000000002,0.998388548851,0.001611451149,0.999999890740,0.000000109260,1.000000000000,0.000000000000,1.000000000000,0.000000000000
12.005860973148,0.998924991651,0.001075008349,0.999981511077,0.000018488923,0.999999999998,0.000000000002,0.998381630214,0.001618369786,0.999999890774,0.000000109226,1.000000000000,0.000000000000,1.000000000000,0.000000000000
12.006394072794,0.998924799045,0.001075200955,0.999981449498,0.000018550502,0.999999999998,0.000000000002,0.998374865971,0.001625134029,0.999999890806,0.000000109194,1.000000000000,0.000000000000,1.000000000000,0.000000000000
12.006927219785,0.998924605572,0.001075394428,0.999981389020,0.000018610980,0.999999999998,0.000000000002,0.998368233838,0.001631766162,0.999999890836,0.000000109164,1.000000000000,0.000000000000,1.000000000000,0.000000000000
12.007460414127,0.998924411419,0.001075588581,0.999981329587,0.000018670413,0.999999999998,0.000000000002,0.998361672578,0.001638327422,0.999999890865,0.000000109135,1.000000000000,0.000000000000,1.000000000000,0.000000000000
12.007993655827,0.998924216737,0.001075783263,0.999981271390,0.000018728610,0.999999999998,0.000000000002,0.998355051824,0.001644948176,0.999999890891,0.000000109109,1.000000000000,0.000000000000,1.000000000000,0.000000000000
12.008526944890,0.998924021723,0.001075978277,0.999981214724,0.000018785276,0.999999999998,0.000000000002,0.998348189910,0.001651810090,0.999999890916,0.000000109084,1.000000000000,0.000000000000,1.000000000000,0.000000000000
12.009060281324,0.998923826502,0.001076173498,0.999981159373,0.000018840627,0.999999999998,0.000000000002,0.998341065197,0.001658934803,0.999999890939,0.000000109061,1.000000000000,0.000000000000,1.000000000000,0.000000000000
12.009593665134,0.998923631120,0.001076368880,0.999981105037,0.000018894963,0.999999999998,0.000000000002,0.998333717816,0.001666282184,0.999999890959,0.000000109041,1.000000000000,0.000000000000,1.000000000000,0.000000000000
12.010127096326,0.998923435601,0.001076564399,0.999981051381,0.000018948619,0.999999999998,0.000000000002,0.998326369469,0.001673630531,0.999999890978,0.000000109022,1.000000000000,0.000000000000,1.000000000000,0.000000000000
12.010660574908,0.998923239962,0.001076760038,0.999980998108,0.000019001892,0.999999999998,0.000000000002,0.998319171223,0.001680828777,0.999999890994,0.000000109006,1.000000000000,0.000000000000,1.000000000000,0.000000000000
12.011194100885,0.998923044214,0.001076955786,0.999980944878,0.000019055122,0.999999999998,0.000000000002,0.998312114225,0.001687885775,0.999999891008,0.000000108992,1.000000000000,0.000000000000,1.000000000000,0.000000000000
12.011727674263,0.998922848355,0.001077151645,0.999980891336,0.000019108664,0.999999999998,0.000000000002,0.998305117337,0.001694882663,0.999999891020,0.000000108980,1.000000000000,0.000000000000,1.000000000000,0.000000000000
12.012261295050,0.998922652368,0.001077347632,0.999980837145,0.000019162855,0.999999999998,0.000000000002,0.998298138137,0.001701861863,0.999999891030,0.000000108970,1.000000000000,0.000000000000,1.000000000000,0.000000000000
12.012794963251,0.998922456223,0.001077543777,0.999980782008,0.000019217992,0.999999999998,0.000000000002,0.998291161922,0.001708838078,0.999999891038,0.000000108962,1.000000000000,0.000000000000,1.000000000000,0.000000000000
12.013328678872,0.998922259886,0.001077740114,0.999980725672,0.000019274328,0.999999999998,0.000000000002,0.998284181898,0.001715818102,0.999999891044,0.000000108956,1.000000000000,0.000000000000,1.000000000000,0.000000000000
12.013862441921,0.998922063314,0.001077936686,0.999980667789,0.000019332211,0.999999999998,0.000000000002,0.998277194786,0.001722805214,0.999999891049,0.000000108951,1.000000000000,0.000000000000,1.000000000000,0.000000000000
12.014396252402,0.998921866456,0.001078133544,0.999980607540,0.000019392460,0.999999999998,0.000000000002,0.998270159138,0.001729840862,0.999999891051,0.000000108949,1.000000000000,0.000000000000,1.000000000000,0.000000000000
12.014930110324,0.998921669261,0.001078330739,0.999980544096,0.000019455904,0.999999999998,0.000000000002,0.998262998453,0.001737001547,0.999999891051,0.000000108949,1.000000000000,0.000000000000,1.000000000000,0.000000000000
12.015464015691,0.998921471672,0.001078528328,0.999980477247,0.000019522753,0.999999999998,0.000000000002,0.998255648955,0.001744351045,0.999999891049,0.000000108951,1.000000000000,0.000000000000,1.000000000000,0.000000000000
12.015997968510,0.998921273626,0.001078726374,0.999980407201,0.000019592799,0.999999999998,0.000000000002,0.998248237019,0.001751762981,0.999999891046,0.000000108954,1.000000000000,0.000000000000,1.000000000000,0.000000000000
12.016531968788,0.998921075046,0.001078924954,0.999980334419,0.000019665581,0.999999999998,0.000000000002,0.998240981571,0.001759018429,0.999999891040,0.000000108960,1.000000000000,0.000000000000,1.000000000000,0.000000000000
12.017066016531,0.998920875849,0.001079124151,0.999980258522,0.000019741478,0.999999999998,0.000000000002,0.998233925129,0.001766074871,0.999999891033,0.000000108967,1.000000000000,0.000000000000,1.000000000000,0.000000000000
12.017600111745,0.998920675955,0.001079324045,0.999980177238,0.000019822762,0.999999999998,0.000000000002,0.998226946755,0.001773053245,0.999999891025,0.000000108975,1.000000000000,0.000000000000,1.000000000000,0.000000000000
12.018134254437,0.998920475282,0.001079524718,0.999980088995,0.000019911005,0.999999999998,0.000000000002,0.998220033677,0.001779966323,0.999999891015,0.000000108985,1.000000000000,0.000000000000,1.000000000000,0.000000000000
12.018668444612,0.998920273751,0.001079726249,0.999979994199,0.000020005801,0.999999999998,0.000000000002,0.998213114943,0.001786885057,0.999999891003,0.000000108997,1.000000000000,0.000000000000,1.000000000000,0.000000000000
12.019202682278,0.998920071279,0.001079928721,0.999979893650,0.000020106350,0.999999999998,0.000000000002,0.998206024145,0.001793975855,0.999999890990,0.000000109010,1.000000000000,0.000000000000,1.000000000000,0.000000000000
12.019736967440,0.998919867784,0.001080132216,0.999979787416,0.000020212584,0.999999999998,0.000000000002,0.998198709318,0.001801290682,0.999999890975,0.000000109025,1.000000000000,0.000000000000,1.000000000000,0.000000000000
12.020271300105,0.998919663185,0.001080336815,0.999979674026,0.000020325974,0.999999999998,0.000000000002,0.998191140038,0.001808859962,0.999999890959,0.000000109041,1.000000000000,0.000000000000,1.000000000000,0.000000000000
12.020805680279,0.998919457393,0.001080542607,0.999979550634,0.000020449366,0.999999999998,0.000000000002,0.998183389013,0.001816610987,0.999999890942,0.000000109058,1.000000000000,0.000000000000,1.000000000000,0.000000000000
12.021340107969,0.998919250305,0.001080749695,0.999979416830,0.000020583170,0.999999999998,0.000000000002,0.998175619967,0.001824380033,0.999999890924,0.000000109076,1.000000000000,0.000000000000,1.000000000000,0.000000000000
12.021874583181,0.998919041778,0.001080958222,0.999979278021,0.000020721979,0.999999999998,0.000000000002,0.998167917657,0.001832082343,0.999999890905,0.000000109095,1.000000000000,0.000000000000,1.000000000000,0.000000000000
12.022409105921,0.998918831737,0.001081168263,0.999979139305,0.000020860695,0.999999999998,0.000000000002,0.998160262328,0.001839737672,0.999999890885,0.000000109115,1.000000000000,0.000000000000,1.000000000000,0.000000000000
12.022943676195,0.998918620311,0.001081379689,0.999979000640,0.000020999360,0.999999999998,0.000000000002,0.998152643183,0.001847356817,0.999999890864,0.000000109136,1.000000000000,0.000000000000,1.000000000000,0.000000000000
12.023478294011,0.998918407518,0.001081592482,0.999978861033,0.000021138967,0.999999999998,0.000000000002,0.998145060101,0.001854939899,0.999999890843,0.000000109157,1.000000000000,0.000000000000,1.000000000000,0.000000000000
12.024012959373,0.998918193274,0.001081806726,0.999978719809,0.000021280191,0.999999999998,0.000000000002,0.998137499692,0.001862500308,0.999999890821,0.000000109179,1.000000000000,0.000000000000,1.000000000000,0.000000000000
12.024547672289,0.998917977513,0.001082022487,0.999978576658,0.000021423342,0.999999999998,0.000000000002,0.998129916248,0.001870083752,0.999999890799,0.000000109201,1.000000000000,0.000000000000,1.000000000000,0.000000000000
12.025082432766,0.998917760198,0.001082239802,0.999978431896,0.000021568104,0.999999999998,0.000000000002,0.998122227281,0.001877772719,0.999999890778,0.000000109222,1.000000000000,0.000000000000,1.000000000000,0.000000000000
12.025617240808,0.998917541303,0.001082458697,0.999978285902,0.000021714098,0.999999999998,0.000000000002,0.998114334619,0.001885665381,0.999999890756,0.000000109244,1.000000000000,0.000000000000,1.000000000000,0.000000000000
12.026152096423,0.998917320814,0.001082679186,0.999978138443,0.000021861557,0.999999999998,0.000000000002,0.998106218268,0.001893781732,0.999999890734,0.000000109266,1.000000000000,0.000000000000,1.000000000000,0.000000000000
12.026686999617,0.998917098725,0.001082901275,0.999977988971,0.000022011029,0.999999999998,0.000000000002,0.998098137034,0.001901862966,0.999999890713,0.000000109287,1.000000000000,0.000000000000,1.000000000000,0.000000000000
12.027221950396,0.998916875034,0.001083124966,0.999977837586,0.000022162414,0.999999999998,0.000000000002,0.998090263797,0.001909736203,0.999999890692,0.000000109308,1.000000000000,0.000000000000,1.000000000000,0.000000000000
12.027756948767,0.998916649712,0.001083350288,0.999977684204,0.000022315796,0.999999999998,0.000000000002,0.998082508949,0.001917491051,0.999999890671,0.000000109329,1.000000000000,0.000000000000,1.000000000000,0.000000000000
12.028291994736,0.998916422798,0.001083577202,0.999977528891,0.000022471109,0.999999999998,0.000000000002,0.998074798712,0.001925201288,0.999999890652,0.000000109348,1.000000000000,0.000000000000,1.000000000000,0.000000000000
12.028827088310,0.998916194306,0.001083805694,0.999977372016,0.000022627984,0.999999999998,0.000000000002,0.998067184603,0.001932815397,0.999999890632,0.000000109368,1.000000000000,0.000000000000,1.000000000000,0.000000000000
12.029362229494,0.998915964249,0.001084035751,0.999977213402,0.000022786598,0.999999999998,0.000000000002,0.998059642906,0.001940357094,0.999999890614,0.000000109386,1.000000000000,0.000000000000,1.000000000000,0.000000000000
12.029897418295,0.998915732638,0.001084267362,0.999977052686,0.000022947314,0.999999999998,0.000000000002,0.998052029805,0.001947970195,0.999999890597,0.000000109403,1.000000000000,0.000000000000,1.000000000000,0.000000000000
12.030432654720,0.998915499485,0.001084500515,0.999976889766,0.000023110234,0.999999999998,0.000000000002,0.998044236232,0.001955763768,0.999999890580,0.000000109420,1.000000000000,0.000000000000,1.000000000000,0.000000000000
12.030967938774,0.998915264803,0.001084735197,0.999976724016,0.000023275984,0.999999999998,0.000000000002,0.998036173864,0.001963826136,0.999999890564,0.000000109436,1.000000000000,0.000000000000,1.000000000000,0.000000000000
12.031503270465,0.998915028610,0.001084971390,0.999976554836,0.000023445164,0.999999999998,0.000000000002,0.998027768538,0.001972231462,0.999999890549,0.000000109451,1.000000000000,0.000000000000,1.000000000000,0.000000000000
12.032038649798,0.998914790905,0.001085209095,0.999976381870,0.000023618130,0.999999999998,0.000000000002,0.998019102418,0.001980897582,0.999999890535,0.000000109465,1.000000000000,0.000000000000,1.000000000000,0.000000000000
12.032574076780,0.998914551679,0.001085448321,0.999976203765,0.000023796235,0.999999999998,0.000000000002,0.998010427504,0.001989572496,0.999999890523,0.000000109477,1.000000000000,0.000000000000,1.000000000000,0.000000000000
12.033109551417,0.998914310912,0.001085689088,0.999976020062,0.000023979938,0.999999999998,0.000000000002,0.998001890277,0.001998109723,0.999999890511,0.000000109489,1.000000000000,0.000000000000,1.000000000000,0.000000000000
12.033645073716,0.998914068573,0.001085931427,0.999975829943,0.000024170057,0.999999999998,0.000000000002,0.997993488984,0.002006511016,0.999999890500,0.000000109500,1.000000000000,0.000000000000,1.000000000000,0.000000000000
12.034180643683,0.998913824615,0.001086175385,0.999975632278,0.000024367722,0.999999999998,0.000000000002,0.997985147001,0.002014852999,0.999999890491,0.000000109509,1.000000000000,0.000000000000,1.000000000000,0.000000000000
12.034716261324,0.998913578976,0.001086421024,0.999975426138,0.000024573862,0.999999999998,0.000000000002,0.997976817287,0.002023182713,0.999999890483,0.000000109517,1.000000000000,0.000000000000,1.000000000000,0.000000000000
12.035251926646,0.998913331560,0.001086668440,0.999975210294,0.000024789706,0.999999999998,0.000000000002,0.997968433645,0.002031566355,0.999999890476,0.000000109524,1.000000000000,0.000000000000,1.000000000000,0.000000000000
12.035787639655,0.998913082248,0.001086917752,0.999974983638,0.000025016362,0.999999999998,0.000000000002,0.997959887673,0.002040112327,0.999999890471,0.000000109529,1.000000000000,0.000000000000,1.000000000000,0.000000000000
12.036323400357,0.998912830909,0.001087169091,0.999974744975,0.000025255025,0.999999999998,0.000000000002,0.997951118758,0.002048881242,0.999999890467,0.000000109533,1.000000000000,0.000000000000,1.000000000000,0.000000000000
12.036859208759,0.998912577391,0.001087422609,0.999974493015,0.000025506985,0.999999999998,0.000000000002,0.997942235808,0.002057764192,0.999999890465,0.000000109535,1.000000000000,0.000000000000,1.000000000000,0.000000000000
12.037395064867,0.998912321489,0.001087678511,0.999974226048,0.000025773952,0.999999999998,0.000000000002,0.997933462328,0.002066537672,0.999999890464,0.000000109536,1.000000000000,0.000000000000,1.000000000000,0.000000000000
12.037930968688,0.998912062956,0.001087937044,0.999973942239,0.000026057761,0.999999999998,0.000000000002,0.997924823530,0.002075176470,0.999999890464,0.000000109536,1.000000000000,0.000000000000,1.000000000000,0.000000000000
12.038466920228,0.998911801545,0.001088198455,0.999973639361,0.000026360639,0.999999999998,0.000000000002,0.997916255996,0.002083744004,0.999999890466,0.000000109534,1.000000000000,0.000000000000,1.000000000000,0.000000000000
12.039002919493,0.998911536990,0.001088463010,0.999973316568,0.000026683432,0.999999999998,0.000000000002,0.997907752585,0.002092247415,0.999999890469,0.000000109531,1.000000000000,0.000000000000,1.000000000000,0.000000000000
12.039538966489,0.998911268972,0.001088731028,0.999972973141,0.000027026859,0.999999999998,0.000000000002,0.997899398171,0.002100601829,0.999999890474,0.000000109526,1.000000000000,0.000000000000,1.000000000000,0.000000000000
12.040075061224,0.998910997049,0.001089002951,0.999972604954,0.000027395046,0.999999999998,0.000000000002,0.997891203995,0.002108796005,0.999999890479,0.000000109521,1.000000000000,0.000000000000,1.000000000000,0.000000000000
12.040611203703,0.998910720595,0.001089279405,0.999972205577,0.000027794423,0.999999999998,0.000000000002,0.997883020265,0.002116979735,0.999999890486,0.000000109514,1.000000000000,0.000000000000,1.000000000000,0.000000000000
12.041147393933,0.998910438940,0.001089561060,0.999971770269,0.000028229731,0.999999999998,0.000000000002,0.997874625975,0.002125374025,0.999999890495,0.000000109505,1.000000000000,0.000000000000,1.000000000000,0.000000000000
12.041683631920,0.998910151434,0.001089848566,0.999971295948,0.000028704052,0.999999999998,0.000000000002,0.997866009752,0.002133990248,0.999999890504,0.000000109496,1.000000000000,0.000000000000,1.000000000000,0.000000000000
12.042219917671,0.998909857329,0.001090142671,0.999970782986,0.000029217014,0.999999999998,0.000000000002,0.997857309862,0.002142690138,0.999999890514,0.000000109486,1.000000000000,0.000000000000,1.000000000000,0.000000000000
12.042756251191,0.998909555693,0.001090444307,0.999970235563,0.000029764437,0.999999999998,0.000000000002,0.997848636427,0.002151363573,0.999999890525,0.000000109475,1.000000000000,0.000000000000,1.000000000000,0.000000000000
12.043292632488,0.998909245363,0.001090754637,0.999969656063,0.000030343937,0.999999999998,0.000000000002,0.997840025547,0.002159974453,0.999999890537,0.000000109463,1.000000000000,0.000000000000,1.000000000000,0.000000000000
12.043829061568,0.998908924883,0.001091075117,0.999969042796,0.000030957204,0.999999999998,0.000000000002,0.997831476561,0.002168523439,0.999999890550,0.000000109450,1.000000000000,0.000000000000,1.000000000000,0.000000000000
12.044365538436,0.998908592392,0.001091407608,0.999968397601,0.000031602399,0.999999999998,0.000000000002,0.997822999950,0.002177000050,0.999999890564,0.000000109436,1.000000000000,0.000000000000,1.000000000000,0.000000000000
12.044902063100,0.998908245460,0.001091754540,0.999967727183,0.000032272817,0.999999999998,0.000000000002,0.997814572328,0.002185427672,0.999999890579,0.000000109421,1.000000000000,0.000000000000,1.000000000000,0.000000000000
12.045438635566,0.998907880794,0.001092119206,0.999967031959,0.000032968041,0.999999999998,0.000000000002,0.997806177292,0.002193822708,0.999999890595,0.000000109405,1.000000000000,0.000000000000,1.000000000000,0.000000000000
12.045975255841,0.998907493757,0.001092506243,0.999966307589,0.000033692411,0.999999999998,0.000000000002,0.997797751805,0.002202248195,0.999999890612,0.000000109388,1.000000000000,0.000000000000,1.000000000000,0.000000000000
