Time (s),Position (m)
0.04,0.008163
0.08,0.009445
0.12,0.008648
0.16,0.007349
0.2,0.003972
0.24,0.000179
0.28,-0.004116
0.32,-0.006887
0.36,-0.009484
0.4,-0.009987
0.44,-0.008826
0.48,-0.005224
0.52,-0.000998
0.56,0.005652
0.6,0.010293
0.64,0.014813
0.68,0.016476
0.72,0.01587
0.76,0.012198
0.8,0.007332
0.84,0.000474
0.88,-0.006835
0.92,-0.012255
0.96,-0.016464
1,-0.016948
1.04,-0.015026
1.08,-0.009588
1.12,-0.003232
1.16,0.005912
1.2,0.013099
1.24,0.019853
1.28,0.022797
1.32,0.022485
1.36,0.01755
1.4,0.011107
1.44,0.001357
1.48,-0.007926
1.52,-0.016619
1.56,-0.020966
1.6,-0.023045
1.64,-0.020533
1.68,-0.014489
1.72,-0.006021
1.76,0.004336
1.8,0.015073
1.84,0.023005
1.88,0.027837
1.92,0.028148
1.96,0.023247
2,0.014935
2.04,0.003903
2.08,-0.007423
2.12,-0.01778
2.16,-0.024655
2.2,-0.030093
2.24,-0.028205
2.28,-0.019719
2.32,-0.009328
2.36,0.002448
2.4,0.015039
2.44,0.024494
2.48,0.031647
2.52,0.033067
2.56,0.028876
2.6,0.019905
2.64,0.007817
2.68,-0.005795
2.72,-0.020672
2.76,-0.030041
2.8,-0.034336
2.84,-0.030838
2.88,-0.024361
2.92,-0.013467
2.96,-0.00034
3,0.013549
3.04,0.025204
3.08,0.033413
3.12,0.036686
3.16,0.033275
3.2,0.024546
3.24,0.011661
3.28,-0.003215
3.32,-0.020204
3.36,-0.028881
3.4,-0.034665
3.44,-0.034838
3.48,-0.031496
3.52,-0.018628
3.56,-0.004254
3.6,0.011817
3.64,0.0251
3.68,0.035214
3.72,0.039319
3.76,0.037241
3.8,0.029032
3.84,0.015852
3.88,-1.1E-05
3.92,-0.016065
3.96,-0.030959
4,-0.038804
4.04,-0.04012
4.08,-0.035479
4.12,-0.022664
4.16,-0.008532
4.2,0.008423
4.24,0.023143
4.28,0.035561
4.32,0.041432
4.36,0.040895
4.4,0.03298
4.44,0.020338
4.48,0.004041
4.52,-0.013
4.56,-0.027582
4.6,-0.039272
4.64,-0.043099
4.68,-0.039445
4.72,-0.029677
4.76,-0.013069
4.8,0.004544
4.84,0.020961
4.88,0.034504
4.92,0.04254
4.96,0.043822
5,0.037258
5.04,0.025256
5.08,0.00825
5.12,-0.009502
5.16,-0.026145
5.2,-0.039549
5.24,-0.045108
5.28,-0.042528
5.32,-0.033765
5.36,-0.017676
5.4,0.000179
5.44,0.018312
5.48,0.033084
5.52,0.043181
5.56,0.045865
5.6,0.040635
5.64,0.029257
5.68,0.012683
5.72,-0.005951
5.76,-0.023685
5.8,-0.038804
5.84,-0.045818
5.88,-0.045368
5.92,-0.037315
5.96,-0.024084
6,-0.00396
6.04,0.014831
6.08,0.031041
6.12,0.042557
6.16,0.047199
6.2,0.043579
6.24,0.033275
6.28,0.017117
6.32,-0.00176
6.36,-0.020481
6.4,-0.037246
6.44,-0.046286
6.48,-0.047377
6.52,-0.040692
6.56,-0.027928
6.6,-0.008601
6.64,0.010882
6.68,0.028235
6.72,0.041553
6.76,0.047909
6.8,0.045917
6.84,0.036946
6.88,0.021498
6.92,0.002985
6.96,-0.017018
7,-0.035046
7.04,-0.045784
7.08,-0.048606
7.12,-0.043498
7.16,-0.031634
7.2,-0.012983
7.24,0.006726
7.28,0.024771
7.32,0.039838
7.36,0.047805
7.4,0.047632
7.44,0.039683
7.48,0.025724
7.52,0.007124
7.56,-0.013208
7.6,-0.032015
7.64,-0.04393
7.68,-0.048554
7.72,-0.045714
7.76,-0.034769
7.8,-0.017174
7.84,0.002431
7.88,0.020979
7.92,0.037293
7.96,0.046593
8,0.048723
8.04,0.042142
8.08,0.028928
8.12,0.01083
8.16,-0.008636
8.2,-0.028898
8.24,-0.041956
8.28,-0.048381
8.32,-0.046909
8.36,-0.037505
8.4,-0.020585
8.44,-0.001414
8.48,0.017567
8.52,0.034331
8.56,0.045536
8.6,0.048861
8.64,0.044064
8.68,0.032149
8.72,0.01464
8.76,-0.004912
8.8,-0.025608
8.84,-0.040017
8.88,-0.048035
8.92,-0.047689
8.96,-0.039739
9,-0.02585
9.04,-0.005172
9.08,0.013965
9.12,0.031439
9.16,0.043804
9.2,0.049086
9.24,0.045553
9.28,0.035041
9.32,0.018416
9.36,-0.00112
9.4,-0.020395
9.44,-0.037644
9.48,-0.047152
9.52,-0.048451
9.56,-0.04206
9.6,-0.02921
9.64,-0.008705
9.68,0.010553
9.72,0.028893
9.76,0.04228
9.8,0.048809
9.84,0.046644
9.88,0.037674
9.92,0.021862
9.96,0.002742
10,-0.017087
10.04,-0.035219
10.08,-0.045766
10.12,-0.04871
10.16,-0.043775
10.2,-0.031773
10.24,-0.012584
10.28,0.007193
10.32,0.025724
10.36,0.040393
10.4,0.04855
10.44,0.047701
10.48,0.039786
10.52,0.024841
10.56,0.006483
10.6,-0.013485
10.64,-0.032431
10.68,-0.044398
10.72,-0.048537
10.76,-0.045195
10.8,-0.034388
10.84,-0.016186
10.88,0.003608
10.92,0.022295
10.96,0.037985
11,0.047199
11.04,0.04855
11.08,0.041657
11.12,0.027941
11.16,0.010224
11.2,-0.0099
11.24,-0.027461
11.28,-0.040536
11.32,-0.047931
11.36,-0.046043
11.4,-0.036241
11.44,-0.019235
11.48,0.000197
11.52,0.019143
11.56,0.035647
11.6,0.046004
11.64,0.048342
11.68,0.043129
11.72,0.030556
11.76,0.01322
11.8,-0.006887
11.84,-0.026803
11.88,-0.040848
11.92,-0.047948
11.96,-0.047117
12,-0.036639
12.04,-0.022127
12.08,-0.002955
12.12,0.015697
12.16,0.033344
12.2,0.044878
12.24,0.048896
12.28,0.044809
12.32,0.033396
12.36,0.016493
12.4,-0.00344
12.44,-0.021728
12.48,-0.036432
12.52,-0.046892
12.56,-0.047325
12.6,-0.040484
12.64,-0.025105
12.68,-0.006523
12.72,0.012441
12.76,0.030192
12.8,0.042904
12.84,0.048272
12.88,0.045224
12.92,0.035491
12.96,0.019368
13,6.00000000001E-06
13.04,-0.018853
13.08,-0.036137
13.12,-0.045835
13.16,-0.047585
13.2,-0.041644
13.24,-0.027322
13.28,-0.009484
13.32,0.009601
13.36,0.027612
13.4,0.041189
13.44,0.048169
13.48,0.046506
13.52,0.037587
13.56,0.022139
13.6,0.003401
13.64,-0.015909
13.68,-0.031946
13.72,-0.044675
13.76,-0.047827
13.8,-0.043272
13.84,-0.02966
13.88,-0.012255
13.92,0.007003
13.96,0.025031
14,0.039128
14.04,0.047095
14.08,0.046679
14.12,0.039128
14.16,0.024477
14.2,0.006137
14.24,-0.013104
14.28,-0.02966
14.32,-0.043342
14.36,-0.047325
14.4,-0.043913
14.44,-0.031513
14.48,-0.015407
14.52,0.004145
14.56,0.022537
14.6,0.037812
14.64,0.046471
14.68,0.047112
14.72,0.040531
14.76,0.02678
14.8,0.008839
14.84,-0.010402
14.88,-0.027426
14.92,-0.042147
14.96,-0.047082
15,-0.044675
15.04,-0.033072
15.08,-0.017832
15.12,0.001011
15.16,0.019801
15.2,0.035907
15.24,0.045882
15.28,0.048082
15.32,0.041986
15.36,0.029395
15.4,0.011835
15.44,-0.007527
15.48,-0.025123
15.52,-0.040571
15.56,-0.047169
15.6,-0.046078
15.64,-0.037505
15.68,-0.020932
15.72,-0.001639
15.76,0.016614
15.8,0.033205
15.84,0.044289
15.88,0.047493
15.92,0.043146
15.96,0.031387
16,0.014519
16.04,-0.0046
16.08,-0.024672
16.12,-0.038995
16.16,-0.04639
16.2,-0.046684
16.24,-0.038631
16.28,-0.02301
16.32,-0.0046
16.36,0.014034
16.4,0.031041
16.44,0.042852
16.48,0.047528
16.52,0.044636
16.56,0.033725
16.6,0.017706
16.64,-0.001206
16.68,-0.019979
16.72,-0.034908
16.76,-0.045558
16.8,-0.046909
16.84,-0.040623
16.88,-0.027911
16.92,-0.008047
16.96,0.01083
17,0.028374
17.04,0.041258
17.08,0.047389
17.12,0.045294
17.16,0.035803
17.2,0.020494
17.24,0.001859
17.28,-0.017104
17.32,-0.034752
17.36,-0.044762
17.4,-0.047186
17.44,-0.042095
17.48,-0.030249
17.52,-0.011268
17.56,0.008215
17.6,0.02562
17.64,0.039648
17.68,0.046922
17.72,0.046194
17.76,0.037708
17.8,0.022884
17.84,0.004682
17.88,-0.014784
17.92,-0.032552
17.96,-0.043619
18,-0.047221
18.04,-0.043134
18.08,-0.031981
18.12,-0.013589
18.16,0.005184
18.2,0.023317
18.24,0.038349
18.28,0.046125
18.32,0.046263
18.36,0.039579
18.4,0.025516
18.44,0.007747
18.48,-0.011701
18.52,-0.030457
18.56,-0.042493
18.6,-0.047082
18.64,-0.044329
18.68,-0.034284
18.72,-0.016706
18.76,0.002275
18.8,0.02065
18.84,0.036253
18.88,0.045519
18.92,0.046662
18.96,0.041051
19,0.027923
19.04,0.010484
19.08,-0.008688
19.12,-0.025902
19.16,-0.041177
19.2,-0.046892
19.24,-0.04561
19.28,-0.036033
19.32,-0.01946
19.36,-0.000721
19.4,0.017948
19.44,0.034383
19.48,0.044947
19.52,0.047788
19.56,0.042523
19.6,0.030192
19.64,0.013203
19.68,-0.006021
19.72,-0.023685
19.76,-0.039289
19.8,-0.04374
19.84,-0.046113
19.88,-0.03799
19.92,-0.024101
19.96,-0.003406
20,0.015281
20.04,0.031699
20.08,0.043337
20.12,0.047493
20.16,0.043648
20.2,0.032547
20.24,0.016043
20.28,-0.003094
20.32,-0.023426
20.36,-0.037956
20.4,-0.045905
20.44,-0.046597
20.48,-0.03967
20.52,-0.026681
20.56,-0.006661
20.6,0.012198
20.64,0.029603
20.68,0.042124
20.72,0.047355
20.76,0.044636
20.8,0.034626
20.84,0.018658
20.88,9.3E-05
20.92,-0.018542
20.96,-0.035808
21,-0.045212
21.04,-0.047152
21.08,-0.041038
21.12,-0.028708
21.16,-0.009432
21.2,0.009237
21.24,0.026798
21.28,0.04015
21.32,0.046731
21.36,0.045501
21.4,0.03634
21.44,0.021516
21.48,0.002916
21.52,-0.016083
21.56,-0.034059
21.6,-0.04445
21.64,-0.047238
21.68,-0.042684
21.72,-0.031011
21.76,-0.012671
21.8,0.006172
21.84,0.024529
21.88,0.038591
21.92,0.046315
21.96,0.046333
22,0.038661
22.04,0.024321
22.08,0.006293
22.12,-0.012879
22.16,-0.031236
22.2,-0.042718
22.24,-0.046892
22.28,-0.044
22.32,-0.034111
22.36,-0.017849
22.4,0.003539
22.44,0.021429
22.48,0.036565
22.52,0.045467
22.56,0.046108
22.6,0.039977
22.64,0.026815
22.68,0.009237
22.72,-0.009657
22.76,-0.028604
22.8,-0.041454
22.84,-0.046909
22.88,-0.0449
22.92,-0.03541
22.96,-0.018247
23,0.000439
23.04,0.018693
23.08,0.034695
23.12,0.044739
23.16,0.046679
23.2,0.041432
23.24,0.029032
23.28,0.011765
23.32,-0.007094
23.36,-0.026577
23.4,-0.04019
23.44,-0.046563
23.48,-0.045506
23.52,-0.036795
23.56,-0.02081
23.6,-0.002678
23.64,0.015731
23.68,0.032443
23.72,0.043614
23.76,0.04732
23.8,0.043164
23.84,0.031681
23.88,0.015004
23.92,-0.003942
23.96,-0.021434
24,-0.037921
24.04,-0.04568
24.08,-0.046026
24.12,-0.038977
24.16,-0.025764
24.2,-0.005813
24.24,0.012614
24.28,0.029794
24.32,0.041899
24.36,0.046454
24.4,0.043718
24.44,0.033604
24.48,0.017983
24.52,-0.000617
24.56,-0.021001
24.6,-0.035825
24.64,-0.044519
24.68,-0.043775
24.72,-0.039913
24.76,-0.02805
24.8,-0.010991
24.84,0.009601
24.88,0.027577
24.92,0.040479
24.96,0.046748
25,0.044999
25.04,0.035699
25.08,0.020321
25.12,0.00224
25.16,-0.016186
25.2,-0.031617
25.24,-0.043792
25.28,-0.046892
25.32,-0.042285
25.36,-0.030751
25.4,-0.011718
25.44,0.007089
25.48,0.02491
25.52,0.038834
25.56,0.046367
25.6,0.045934
25.64,0.038262
25.68,0.023715
25.72,0.005669
25.76,-0.013156
25.8,-0.031721
25.84,-0.043065
25.88,-0.046719
25.92,-0.04329
25.96,-0.03321
26,-0.015234
26.04,0.003539
26.08,0.021758
26.12,0.037067
26.16,0.045623
26.2,0.046281
26.24,0.039769
26.28,0.026295
26.32,0.008821
26.36,-0.010333
26.4,-0.029348
26.44,-0.041766
26.48,-0.046684
26.52,-0.044415
26.56,-0.034596
26.6,-0.020204
26.64,0.000699
26.68,0.019126
26.72,0.035128
26.76,0.044878
26.8,0.04687
26.84,0.041761
26.88,0.029101
26.92,0.011835
26.96,-0.007354
27,-0.026803
27.04,-0.040398
27.08,-0.046459
27.12,-0.045732
27.16,-0.037142
27.2,-0.021001
27.24,-0.002401
27.28,0.016164
27.32,0.032928
27.36,0.04396
27.4,0.047458
27.44,0.043302
27.48,0.031855
27.52,0.01516
27.56,-0.003804
27.6,-0.021832
27.64,-0.038215
27.68,-0.045524
27.72,-0.046338
27.76,-0.039012
27.8,-0.025867
27.84,-0.005518
27.88,0.012943
27.92,0.030365
27.96,0.042298
28,0.047008
28.04,0.044012
28.08,0.033638
28.12,0.017671
28.16,-0.000929
28.2,-0.021555
28.24,-0.036501
28.28,-0.044952
28.32,-0.04658
28.36,-0.040242
28.4,-0.028101
28.44,-0.008497
28.48,0.010137
28.52,0.02801
28.56,0.040947
28.6,0.047441
28.64,0.045484
28.68,0.036184
28.72,0.020684
28.76,0.002188
28.8,-0.016689
28.84,-0.034319
28.88,-0.043982
28.92,-0.047013
28.96,-0.042147
29,-0.030924
29.04,-0.011822
29.08,0.006916
29.12,0.0251
29.16,0.039007
29.2,0.046419
29.24,0.046021
29.28,0.037933
29.32,0.023473
29.36,0.005444
29.4,-0.013502
29.44,-0.031392
29.48,-0.042614
29.52,-0.046563
29.56,-0.04303
29.6,-0.03276
29.64,-0.014818
29.68,0.003712
29.72,0.022191
29.76,0.036877
29.8,0.045155
29.84,0.045709
29.88,0.039024
29.92,0.025551
29.96,0.008059
30,-0.010541
