Time (s),Position (m)
0.04,-0.004264
0.08,-0.005308
0.12,-0.004629
0.16,-0.003464
0.2,-0.000682
0.24,0.002204
0.28,0.006934
0.32,0.01029
0.36,0.012968
0.4,0.013507
0.44,0.013315
0.48,0.009855
0.52,0.006099
0.56,0.000952
0.6,-0.005742
0.64,-0.010055
0.68,-0.01228
0.72,-0.012959
0.76,-0.010959
0.8,-0.007446
0.84,-0.002647
0.88,0.003091
0.92,0.011594
0.96,0.015837
1,0.019123
1.04,0.01841
1.08,0.015367
1.12,0.010272
1.16,0.004308
1.2,-0.002978
1.24,-0.011741
1.28,-0.016054
1.32,-0.018453
1.36,-0.016645
1.4,-0.013324
1.44,-0.006838
1.48,0.001735
1.52,0.010203
1.56,0.017419
1.6,0.022427
1.64,0.024114
1.68,0.022601
1.72,0.01608
1.76,0.009699
1.8,0.000222
1.84,-0.009585
1.88,-0.017636
1.92,-0.021861
1.96,-0.023287
2,-0.018818
2.04,-0.013654
2.08,-0.004351
2.12,0.006099
2.16,0.015941
2.2,0.022653
2.24,0.028148
2.28,0.027783
2.32,0.024253
2.36,0.015559
2.4,0.006325
2.44,-0.00696
2.48,-0.01621
2.52,-0.023496
2.56,-0.026817
2.6,-0.02487
2.64,-0.019653
2.68,-0.010855
2.72,-7.4E-05
2.76,0.010516
2.8,0.021801
2.84,0.02893
2.88,0.031695
2.92,0.030008
2.96,0.02314
3,0.013002
3.04,-0.001934
3.08,-0.012872
3.12,-0.022835
3.16,-0.028069
3.2,-0.030503
3.24,-0.025756
3.28,-0.018645
3.32,-0.006334
3.36,0.004673
3.4,0.01954
3.44,0.027974
3.48,0.034373
3.52,0.034025
3.56,0.030408
3.6,0.020201
3.64,0.008881
3.68,-0.007551
3.72,-0.018471
3.76,-0.02826
3.8,-0.031599
3.84,-0.031303
3.88,-0.024522
3.92,-0.014767
3.96,-0.001447
4,0.012881
4.04,0.025331
4.08,0.033069
4.12,0.036668
4.16,0.034182
4.2,0.027591
4.24,0.01568
4.28,0.000431
4.32,-0.013828
4.36,-0.025426
4.4,-0.032434
4.44,-0.034277
4.48,-0.029912
4.52,-0.021653
4.56,-0.008803
4.6,0.004499
4.64,0.020601
4.68,0.030982
4.72,0.037642
4.76,0.038111
4.8,0.033521
4.84,0.022497
4.88,0.009977
4.92,-0.007307
4.96,-0.02007
5,-0.031182
5.04,-0.035268
5.08,-0.035494
5.12,-0.027634
5.16,-0.017253
5.2,-0.002873
5.24,0.01302
5.28,0.027
5.32,0.035034
5.36,0.040285
5.4,0.037659
5.44,0.031278
5.48,0.017645
5.52,0.003508
5.56,-0.01395
5.6,-0.026469
5.64,-0.034955
5.68,-0.036781
5.72,-0.033686
5.76,-0.024452
5.8,-0.011341
5.84,0.003439
5.88,0.020271
5.92,0.032477
5.96,0.039276
6,0.041102
6.04,0.036407
6.08,0.026444
6.12,0.012098
6.16,-0.005725
6.2,-0.019983
6.24,-0.032451
6.28,-0.03725
6.32,-0.037598
6.36,-0.030521
6.4,-0.020123
6.44,-0.005203
6.48,0.008934
6.52,0.026965
6.56,0.036599
6.6,0.041902
6.64,0.040337
6.68,0.033695
6.72,0.018028
6.76,0.006273
6.8,-0.012333
6.84,-0.025478
6.88,-0.035946
6.92,-0.038676
6.96,-0.036363
7,-0.026869
7.04,-0.014506
7.08,0.001317
7.12,0.018254
7.16,0.032095
7.2,0.039798
7.24,0.043224
7.28,0.038842
7.32,0.029574
7.36,0.012342
7.4,-0.002578
7.44,-0.018749
7.48,-0.031129
7.52,-0.038641
7.56,-0.039754
7.6,-0.033738
7.64,-0.022887
7.68,-0.008125
7.72,0.009768
7.76,0.025227
7.8,0.036685
7.84,0.042858
7.88,0.042615
7.92,0.036459
7.96,0.024566
8,0.009038
8.04,-0.009846
8.08,-0.02407
8.12,-0.035407
8.16,-0.039476
8.2,-0.038624
8.24,-0.02946
8.28,-0.017636
8.32,-0.001169
8.36,0.015593
8.4,0.030513
8.44,0.038998
8.48,0.043763
8.52,0.040424
8.56,0.032234
8.6,0.017436
8.64,0.002622
8.68,-0.016436
8.72,-0.029338
8.76,-0.038398
8.8,-0.039737
8.84,-0.03579
8.88,-0.024922
8.92,-0.011115
8.96,0.005491
9,0.022636
9.04,0.035573
9.08,0.042198
9.12,0.04385
9.16,0.037955
9.2,0.026774
9.24,0.011142
9.28,-0.006803
9.32,-0.022696
9.36,-0.034572
9.4,-0.040224
9.44,-0.040119
9.48,-0.031929
9.52,-0.020123
9.56,-0.004612
9.6,0.011124
9.64,0.028774
9.68,0.038859
9.72,0.044354
9.76,0.04218
9.8,0.034755
9.84,0.020497
9.88,0.003213
9.92,-0.013932
9.96,-0.027669
10,-0.037841
10.04,-0.040311
10.08,-0.037824
10.12,-0.027426
10.16,-0.01428
10.2,0.002187
10.24,0.019419
10.28,0.033625
10.32,0.041085
10.36,0.044649
10.4,0.039555
10.44,0.030113
10.48,0.014115
10.52,-0.003395
10.56,-0.020279
10.6,-0.032225
10.64,-0.039858
10.68,-0.04038
10.72,-0.034294
10.76,-0.022522
10.8,-0.007533
10.84,0.008812
10.88,0.026044
10.92,0.037572
10.96,0.043137
11,0.043363
11.04,0.036738
11.08,0.02394
11.12,0.006169
11.16,-0.010646
11.2,-0.02553
11.24,-0.036781
11.28,-0.04038
11.32,-0.039285
11.36,-0.029721
11.4,-0.017323
11.44,-0.000752
11.48,0.016706
11.52,0.031973
11.56,0.040633
11.6,0.044806
11.64,0.040998
11.68,0.032982
11.72,0.018028
11.76,0.002569
11.8,-0.016697
11.84,-0.029321
11.88,-0.038919
11.92,-0.039945
11.96,-0.036311
12,-0.025252
12.04,-0.011672
12.08,0.007212
12.12,0.022027
12.16,0.035434
12.2,0.042059
12.24,0.04371
12.28,0.037711
12.32,0.027678
12.36,0.011803
12.4,-0.006142
12.44,-0.022261
12.48,-0.033877
12.52,-0.040241
12.56,-0.03958
12.6,-0.03226
12.64,-0.020592
12.68,-0.004977
12.72,0.013072
12.76,0.028061
12.8,0.038685
12.84,0.043954
12.88,0.042267
12.92,0.034947
12.96,0.021558
13,0.004291
13.04,-0.012802
13.08,-0.026574
13.12,-0.037407
13.16,-0.040102
13.2,-0.038067
13.24,-0.027843
13.28,-0.01548
13.32,0.000952
13.36,0.018132
13.4,0.032825
13.44,0.040615
13.48,0.044197
13.52,0.039537
13.56,0.0306
13.6,0.015263
13.64,-0.001969
13.68,-0.01894
13.72,-0.030903
13.76,-0.039372
13.8,-0.03958
13.84,-0.034694
13.88,-0.023479
13.92,-0.009324
13.96,0.00709
14,0.024235
14.04,0.036494
14.08,0.042372
14.12,0.043154
14.16,0.036842
14.2,0.024983
14.24,0.007386
14.28,-0.008507
14.32,-0.023809
14.36,-0.035407
14.4,-0.040102
14.44,-0.039111
14.48,-0.03066
14.52,-0.019079
14.56,-0.003117
14.6,0.014463
14.64,0.030043
14.68,0.039502
14.72,0.044302
14.76,0.041537
14.8,0.033834
14.84,0.01928
14.88,0.002169
14.92,-0.014923
14.96,-0.027913
15,-0.038311
15.04,-0.040206
15.08,-0.037407
15.12,-0.026504
15.16,-0.013637
15.2,0.003282
15.24,0.01994
15.28,0.03399
15.32,0.04112
15.36,0.044406
15.4,0.03905
15.44,0.029487
15.48,0.013576
15.52,-0.004038
15.56,-0.020609
15.6,-0.032451
15.64,-0.039528
15.68,-0.039893
15.72,-0.033738
15.76,-0.021809
15.8,-0.006803
15.84,0.01142
15.88,0.026079
15.92,0.036877
15.96,0.042719
16,0.042737
16.04,0.035833
16.08,0.022862
16.12,0.005386
16.16,-0.011168
16.2,-0.025548
16.24,-0.036294
16.28,-0.040258
16.32,-0.038833
16.36,-0.02913
16.4,-0.017149
16.44,-0.000526
16.48,0.014967
16.52,0.031278
16.56,0.039885
16.6,0.044302
16.64,0.040407
16.68,0.031973
16.72,0.014985
16.76,4.8E-05
16.8,-0.017219
16.84,-0.029686
16.88,-0.038415
16.92,-0.039719
16.96,-0.036033
17,-0.0244
17.04,-0.011063
17.08,0.005438
17.12,0.022184
17.16,0.034947
17.2,0.041398
17.24,0.043589
17.28,0.037172
17.32,0.027018
17.36,0.009473
17.4,-0.006455
17.44,-0.022261
17.48,-0.033459
17.52,-0.039459
17.56,-0.039128
17.6,-0.03139
17.64,-0.019844
17.68,-0.004403
17.72,0.011646
17.76,0.027783
17.8,0.037572
17.84,0.042789
17.88,0.041346
17.92,0.033973
17.96,0.020201
18,0.003004
18.04,-0.013706
18.08,-0.026887
18.12,-0.037094
18.16,-0.039702
18.2,-0.037268
18.24,-0.027095
18.28,-0.014732
18.32,0.002048
18.36,0.018845
18.4,0.033086
18.44,0.040285
18.48,0.04385
18.52,0.03905
18.56,0.030182
18.6,0.015037
18.64,-0.002456
18.68,-0.019184
18.72,-0.031095
18.76,-0.039163
18.8,-0.039424
18.84,-0.034294
18.88,-0.022835
18.92,-0.008681
18.96,0.007629
19,0.024166
19.04,0.036372
19.08,0.041815
19.12,0.042493
19.16,0.036233
19.2,0.02514
19.24,0.007456
19.28,-0.008837
19.32,-0.023705
19.36,-0.034572
19.4,-0.039389
19.44,-0.038346
19.48,-0.029964
19.52,-0.018366
19.56,-0.002265
19.6,0.015072
19.64,0.029156
19.68,0.038146
19.72,0.042737
19.76,0.040181
19.8,0.032634
19.84,0.018949
19.88,0.001822
19.92,-0.014732
19.96,-0.027547
20,-0.037215
20.04,-0.038885
20.08,-0.035894
20.12,-0.02553
20.16,-0.012767
20.2,0.003804
20.24,0.020062
20.28,0.033643
20.32,0.040511
20.36,0.042858
20.4,0.037485
20.44,0.028513
20.48,0.013368
20.52,-0.003917
20.56,-0.020227
20.6,-0.031582
20.64,-0.038659
20.68,-0.038572
20.72,-0.032799
20.76,-0.021288
20.8,-0.00722
20.84,0.008934
20.88,0.025609
20.92,0.037016
20.96,0.042372
21,0.041798
21.04,0.034947
21.08,0.023018
21.12,0.00556
21.16,-0.010524
21.2,-0.024748
21.24,-0.035546
21.28,-0.039354
21.32,-0.037772
21.36,-0.028608
21.4,-0.016627
21.44,-0.000665
21.48,0.016567
21.52,0.031034
21.56,0.039607
21.6,0.043589
21.64,0.039955
21.68,0.03213
21.72,0.017715
21.76,0.000413
21.8,-0.016558
21.84,-0.02873
21.88,-0.03805
21.92,-0.039163
21.96,-0.035494
22,-0.0248
22.04,-0.011481
22.08,0.005299
22.12,0.021818
22.16,0.034738
22.2,0.041206
22.24,0.043067
22.28,0.037346
22.32,0.027417
22.36,0.010046
22.4,-0.005968
22.44,-0.021722
22.48,-0.033007
22.52,-0.039267
22.56,-0.038798
22.6,-0.03186
22.64,-0.020662
22.68,-0.005221
22.72,0.012689
22.76,0.027696
22.8,0.037833
22.84,0.042789
22.88,0.041241
22.92,0.034129
22.96,0.021505
23,0.004308
23.04,-0.012506
23.08,-0.026365
23.12,-0.036902
23.16,-0.039563
23.2,-0.037563
23.24,-0.027739
23.28,-0.015462
23.32,0.000987
23.36,0.018236
23.4,0.032338
23.44,0.040111
23.48,0.043641
23.52,0.039242
23.56,0.030582
23.6,0.013507
23.64,-0.001639
23.68,-0.018384
23.72,-0.030382
23.76,-0.038763
23.8,-0.03925
23.84,-0.034555
23.88,-0.023392
23.92,-0.009342
23.96,0.006725
24,0.023123
24.04,0.035886
24.08,0.042041
24.12,0.042911
24.16,0.036668
24.2,0.025748
24.24,0.008186
24.28,-0.00809
24.32,-0.023096
24.36,-0.034207
24.4,-0.039163
24.44,-0.038537
24.48,-0.030382
24.52,-0.018749
24.56,-0.003134
24.6,0.011907
24.64,0.028878
24.68,0.038094
24.72,0.04305
24.76,0.04065
24.8,0.033103
24.84,0.018793
24.88,0.002222
24.92,-0.014489
24.96,-0.027478
25,-0.037268
25.04,-0.039302
25.08,-0.036346
25.12,-0.026191
25.16,-0.013306
25.2,0.003195
25.24,0.020045
25.28,0.03366
25.32,0.040581
25.36,0.043363
25.4,0.038181
25.44,0.028617
25.48,0.011524
25.52,-0.003882
25.56,-0.020192
25.6,-0.031599
25.64,-0.038937
25.68,-0.039059
25.72,-0.033007
25.76,-0.021722
25.8,-0.007255
25.84,0.010898
25.88,0.025244
25.92,0.03679
25.96,0.042302
26,0.042145
26.04,0.035329
26.08,0.023766
26.12,0.006151
26.16,-0.010229
26.2,-0.024591
26.24,-0.035355
26.28,-0.039389
26.32,-0.037928
26.36,-0.029043
26.4,-0.017445
26.44,-0.001152
26.48,0.015889
26.52,0.030026
26.56,0.038268
26.6,0.042111
26.64,0.038459
26.68,0.030617
26.72,0.016567
26.76,-0.000195
26.8,-0.01694
26.84,-0.029147
26.88,-0.03812
26.92,-0.038954
26.96,-0.035146
27,-0.024191
27.04,-0.011011
27.08,0.005665
27.12,0.021853
27.16,0.034634
27.2,0.041033
27.24,0.042893
27.28,0.036599
27.32,0.026826
27.36,0.009073
27.4,-0.006438
27.44,-0.022227
27.48,-0.033286
27.52,-0.039372
27.56,-0.038728
27.6,-0.031808
27.64,-0.020123
27.68,-0.004925
27.72,0.012933
27.76,0.027348
27.8,0.037624
27.84,0.042476
27.88,0.040702
27.92,0.033521
27.96,0.021001
28,0.003665
28.04,-0.013115
28.08,-0.026417
28.12,-0.036555
28.16,-0.038937
28.2,-0.036676
28.24,-0.026643
28.28,-0.014437
28.32,0.002013
28.36,0.018619
28.4,0.032147
28.44,0.039676
28.48,0.042511
28.52,0.037485
28.56,0.028809
28.6,0.011698
28.64,-0.003412
28.68,-0.01967
28.72,-0.030869
28.76,-0.038763
28.8,-0.038641
28.84,-0.033529
28.88,-0.02207
28.92,-0.008211
28.96,0.008551
29,0.024722
29.04,0.036494
29.08,0.041937
29.12,0.042493
29.16,0.035607
29.2,0.024914
29.24,0.009107
29.28,-0.009064
29.32,-0.023948
29.36,-0.034746
29.4,-0.039476
29.44,-0.038346
29.48,-0.029877
29.52,-0.018019
29.56,-0.002143
29.6,0.015228
29.64,0.029382
29.68,0.038216
29.72,0.042493
29.76,0.039537
29.8,0.031834
29.84,0.018202
29.88,0.001248
29.92,-0.015689
29.96,-0.028069
30,-0.037615
